# Radius (m)	Density (kg/m^3)
0.000000000000000000e+00 1.574282939138235815e+04
1.309863257685884855e+04 1.574271171914219849e+04
2.619726515371769710e+04 1.574235870494169285e+04
3.929589773057654384e+04 1.574177035630761020e+04
5.239453030743539421e+04 1.574094668056095543e+04
6.549316288429424458e+04 1.573988767638755598e+04
7.859179546115308767e+04 1.573859335893893513e+04
9.169042803801194532e+04 1.573706375763460164e+04
1.047890606148707884e+05 1.573529890401174634e+04
1.178876931917296315e+05 1.573329883173403141e+04
1.309863257685884892e+05 1.573106357660124195e+04
1.440849583454473468e+05 1.572859317655975974e+04
1.571835909223061753e+05 1.572588767171390646e+04
1.702822234991650330e+05 1.572294710433815999e+04
1.833808560760238906e+05 1.571977151889021843e+04
1.964794886528827192e+05 1.571636096202495537e+04
2.095781212297415768e+05 1.571271548260924828e+04
2.226767538066004345e+05 1.570883513173768733e+04
2.357753863834592630e+05 1.570471996274919911e+04
2.488740189603181207e+05 1.570037003124452531e+04
2.619726515371769783e+05 1.569578539323027144e+04
2.750712841140358360e+05 1.569096604163305892e+04
2.881699166908946936e+05 1.568591203284665971e+04
3.012685492677534930e+05 1.568062346927498220e+04
3.143671818446123507e+05 1.567510045540565989e+04
3.274658144214712083e+05 1.566934309783952631e+04
3.405644469983300660e+05 1.566335150532105399e+04
3.536630795751889236e+05 1.565712578876956832e+04
3.667617121520477813e+05 1.565066606131155277e+04
3.798603447289065807e+05 1.564397243831377091e+04
3.929589773057654384e+05 1.563704503741739609e+04
4.060576098826242960e+05 1.562988397857312157e+04
4.191562424594831537e+05 1.562248938407720561e+04
4.322548750363420113e+05 1.561486137860863164e+04
4.453535076132008689e+05 1.560700008926711962e+04
4.584521401900597266e+05 1.559890564561234169e+04
4.715507727669185260e+05 1.559057817970410179e+04
4.846494053437773837e+05 1.558201782614360127e+04
4.977480379206362413e+05 1.557322472211581771e+04
5.108466704974950990e+05 1.556419900743299331e+04
5.239453030743539566e+05 1.555494082457924560e+04
5.370439356512128143e+05 1.554545031875634777e+04
5.501425682280716719e+05 1.553572763793066406e+04
5.632412008049305296e+05 1.552577293288131477e+04
5.763398333817893872e+05 1.551558635724952728e+04
5.894384659586481284e+05 1.550516806758928942e+04
6.025370985355069861e+05 1.549451822341917432e+04
6.156357311123658437e+05 1.548363698727558585e+04
6.287343636892247014e+05 1.547252452476721555e+04
6.418329962660835590e+05 1.546118100463092196e+04
6.549316288429424167e+05 1.544960659878890510e+04
6.680302614198012743e+05 1.543780148240740164e+04
6.811288939966601320e+05 1.542576583395668422e+04
6.942275265735189896e+05 1.541349983527260338e+04
7.073261591503778473e+05 1.540100367161958275e+04
7.204247917272367049e+05 1.538827753175516955e+04
7.335234243040955625e+05 1.537532160799610938e+04
7.466220568809544202e+05 1.536213609628600898e+04
7.597206894578131614e+05 1.534872119626466156e+04
7.728193220346720191e+05 1.533507711133897647e+04
7.859179546115308767e+05 1.532120404875563509e+04
7.990165871883897344e+05 1.530710221967547113e+04
8.121152197652485920e+05 1.529277183924960445e+04
8.252138523421074497e+05 1.527821312669741201e+04
8.383124849189663073e+05 1.526342630538631056e+04
8.514111174958251650e+05 1.524841160291346387e+04
8.645097500726840226e+05 1.523316925118938525e+04
8.776083826495428802e+05 1.521769948652353560e+04
8.907070152264017379e+05 1.520200254971195682e+04
9.038056478032605955e+05 1.518607868612692255e+04
9.169042803801194532e+05 1.516992764154799443e+04
9.300029129569781944e+05 1.515354709439352519e+04
9.431015455338370521e+05 1.513693716049291288e+04
9.562001781106959097e+05 1.512009835467457378e+04
9.692988106875547674e+05 1.510303118745557003e+04
9.823974432644136250e+05 1.508573616512514309e+04
9.954960758412724826e+05 1.506821378982771421e+04
1.008594708418131340e+06 1.505046455964535198e+04
1.021693340994990198e+06 1.503248896867973963e+04
1.034791973571849056e+06 1.501428750713371119e+04
1.047890606148707913e+06 1.499586066139232935e+04
1.060989238725566771e+06 1.497720891410357217e+04
1.074087871302425629e+06 1.495833274425868876e+04
1.087186503879284486e+06 1.493923262727219117e+04
1.100285136456143344e+06 1.491990903506158611e+04
1.113383769033002201e+06 1.490036243612679755e+04
1.126482401609861059e+06 1.488059329562941639e+04
1.139581034186719917e+06 1.486060207547168829e+04
1.152679666763578774e+06 1.484038923437541234e+04
1.165778299340437632e+06 1.481995522796063779e+04
1.178876931917296257e+06 1.479930050882431897e+04
1.191975564494155115e+06 1.477842552661887385e+04
1.205074197071013972e+06 1.475733072813072431e+04
1.218172829647872830e+06 1.473601655735882559e+04
1.231271462224731687e+06 1.471448345559328664e+04
1.244370094801590545e+06 1.469273186149398680e+04
1.257468727378449403e+06 1.467076221116934903e+04
1.270567359955308260e+06 1.464857493825527126e+04
1.283665992532167118e+06 1.462617047399417061e+04
1.296764625109025976e+06 1.460354924731431311e+04
1.309863257685884833e+06 1.458071168490936543e+04
1.322961890262743691e+06 1.455765821131821576e+04
1.336060522839602549e+06 1.453438924900516577e+04
1.349159155416461406e+06 1.451090521844043178e+04
1.362257787993320264e+06 1.448720653818110804e+04
1.375356420570179122e+06 1.446329362495252280e+04
1.388455053147037979e+06 1.443916689373009285e+04
1.401553685723896837e+06 1.441482675782170736e+04
1.414652318300755695e+06 1.439027362895065380e+04
1.427750950877614552e+06 1.436550791733919323e+04
1.440849583454473410e+06 1.434053003179269945e+04
1.453948216031332267e+06 1.431534037978459673e+04
1.467046848608191125e+06 1.428993936754193055e+04
1.480145481185049983e+06 1.426432740013178773e+04
1.493244113761908840e+06 1.423850488154851701e+04
1.506342746338767698e+06 1.421247221480180087e+04
1.519441378915626323e+06 1.418622980200570964e+04
1.532540011492485180e+06 1.415977804446863229e+04
1.545638644069344038e+06 1.413311734278434233e+04
1.558737276646202896e+06 1.410624809692403323e+04
1.571835909223061753e+06 1.407917070632951800e+04
1.584934541799920611e+06 1.405188557000764558e+04
1.598033174376779469e+06 1.402439308662586336e+04
1.611131806953638326e+06 1.399669365460915651e+04
1.624230439530497184e+06 1.396878767223827890e+04
1.637329072107356042e+06 1.394067553774940279e+04
1.650427704684214899e+06 1.391235764943526010e+04
1.663526337261073757e+06 1.388383440574778069e+04
1.676624969837932615e+06 1.385510620540235323e+04
1.689723602414791472e+06 1.382617344748370670e+04
1.702822234991650330e+06 1.379703653155358370e+04
1.715920867568509188e+06 1.376769585776014355e+04
1.729019500145368045e+06 1.373815182694927717e+04
1.742118132722226903e+06 1.370840484077786459e+04
1.755216765299085760e+06 1.367845530182900620e+04
1.768315397875944618e+06 1.364830361372942934e+04
1.781414030452803476e+06 1.361795018126898140e+04
1.794512663029662333e+06 1.358739541052244931e+04
1.807611295606521191e+06 1.355663970897370564e+04
1.820709928183380049e+06 1.352568348564226289e+04
1.833808560760238906e+06 1.349452715121236542e+04
1.846907193337097531e+06 1.346317111816473152e+04
1.860005825913956389e+06 1.343161580091092765e+04
1.873104458490815246e+06 1.339986161593062207e+04
1.886203091067674104e+06 1.336790898191171800e+04
1.899301723644532962e+06 1.333575831989350627e+04
1.912400356221391819e+06 1.330341005341294294e+04
1.925498988798250677e+06 1.327086460865417757e+04
1.938597621375109535e+06 1.323812241460139921e+04
1.951696253951968392e+06 1.320518390319518949e+04
1.964794886528827250e+06 1.317204950949244449e+04
1.977893519105686108e+06 1.313871967183004381e+04
1.990992151682544965e+06 1.310519483199232491e+04
2.004090784259403823e+06 1.307147543538260288e+04
2.017189416836262681e+06 1.303756193119878299e+04
2.030288049413121538e+06 1.300345477261324413e+04
2.043386681989980396e+06 1.296915441695715344e+04
2.056485314566839254e+06 1.293466132590936832e+04
2.069583947143698111e+06 1.289997596569005327e+04
2.082682579720556969e+06 1.286509880725921175e+04
2.095781212297415826e+06 1.283003032652029651e+04
2.108879844874274451e+06 1.279477100452904779e+04
2.121978477451133542e+06 1.275932132770777389e+04
2.135077110027992167e+06 1.272368178806529249e+04
2.148175742604851257e+06 1.268785288342262356e+04
2.161274375181709882e+06 1.265183511764474315e+04
2.174373007758568972e+06 1.261562900087857633e+04
2.187471640335427597e+06 1.257923504979740392e+04
2.200570272912286688e+06 1.254265378785197754e+04
2.213668905489145312e+06 1.250588574552852697e+04
2.226767538066004403e+06 1.246893146061391235e+04
2.239866170642863028e+06 1.243179147846817432e+04
2.252964803219722118e+06 1.239446635230476204e+04
2.266063435796580743e+06 1.235695664347865022e+04
2.279162068373439834e+06 1.231926292178269432e+04
2.292260700950298458e+06 1.228138576575245679e+04
2.305359333527157549e+06 1.224332576297984269e+04
2.318457966104016174e+06 1.220508351043581933e+04
2.331556598680875264e+06 1.216665961480254555e+04
2.344655231257733889e+06 1.212805469281531259e+04
2.357753863834592514e+06 1.208926937161449314e+04
2.370852496411451604e+06 1.205030428910802948e+04
2.383951128988310229e+06 1.201116009434471562e+04
2.397049761565169320e+06 1.197183744789868433e+04
2.410148394142027944e+06 1.193233702226550849e+04
2.423247026718887035e+06 1.189265950227034045e+04
2.436345659295745660e+06 1.185280558548851332e+04
2.449444291872604750e+06 1.181277598267899884e+04
2.462542924449463375e+06 1.177257141823128040e+04
2.475641557026322465e+06 1.173219263062602477e+04
2.488740189603181090e+06 1.169164037291014029e+04
2.501838822180040181e+06 1.165091541318663258e+04
2.514937454756898805e+06 1.161001853511991067e+04
2.528036087333757896e+06 1.156890555418869917e+04
2.541134719910616521e+06 1.152740953322237328e+04
2.554233352487475611e+06 1.148552530773455510e+04
2.567331985064334236e+06 1.144326494210992496e+04
2.580430617641193327e+06 1.140064042957178390e+04
2.593529250218051951e+06 1.135766369516249688e+04
2.606627882794911042e+06 1.131434659858685700e+04
2.619726515371769667e+06 1.127070093691977308e+04
2.632825147948628757e+06 1.122673844717931934e+04
2.645923780525487382e+06 1.118247080876597829e+04
2.659022413102346472e+06 1.113790964576844817e+04
2.672121045679205097e+06 1.109306652913635480e+04
2.685219678256063722e+06 1.104795297871963339e+04
2.698318310832922813e+06 1.100258046517434559e+04
2.711416943409781437e+06 1.095696041173421690e+04
2.724515575986640528e+06 1.091110419584705414e+04
2.737614208563499153e+06 1.086502315067486779e+04
2.750712841140358243e+06 1.081872856645625870e+04
2.763811473717216868e+06 1.077223169172948474e+04
2.776910106294075958e+06 1.072554373441419375e+04
2.790008738870934583e+06 1.067867586274973291e+04
2.803107371447793674e+06 1.063163920608760236e+04
2.816206004024652299e+06 1.058444485553543018e+04
2.829304636601511389e+06 1.053710386444958203e+04
2.842403269178370014e+06 1.048962724877330947e+04
2.855501901755229104e+06 1.044202598721713002e+04
2.868600534332087729e+06 1.039431102127787017e+04
2.881699166908946820e+06 1.034649325509263144e+04
2.894797799485805444e+06 1.029858355512370690e+04
2.907896432062664535e+06 1.025059274967033707e+04
2.920995064639523160e+06 1.020253162820287253e+04
2.934093697216382250e+06 1.015441094051485197e+04
2.947192329793240875e+06 1.010624139568832470e+04
2.960290962370099965e+06 1.005803366086744245e+04
2.973389594946958590e+06 1.000979835983541852e+04
2.986488227523817681e+06 9.961546071389555436e+03
2.999586860100676306e+06 9.913287327509158786e+03
3.012685492677535396e+06 9.865032611310853099e+03
3.025784125254394021e+06 9.816792354785795396e+03
3.038882757831252646e+06 9.768576936313245824e+03
3.051981390408111736e+06 9.720396677944758267e+03
3.065080022984970361e+06 9.672261842453370264e+03
3.078178655561829451e+06 9.624182630141993286e+03
3.091277288138688076e+06 9.576169175405342685e+03
3.104375920715547167e+06 9.528231543039635653e+03
3.117474553292405792e+06 9.480379724294452899e+03
3.130573185869264882e+06 9.432623632661150623e+03
3.143671818446123507e+06 9.384973099392364020e+03
3.156770451022982597e+06 9.337437868747198081e+03
3.169869083599841222e+06 9.290027592957005254e+03
3.182967716176700313e+06 9.242751826906667702e+03
3.196066348753558937e+06 9.195620022526703906e+03
3.209164981330418028e+06 9.148641522891619388e+03
3.222263613907276653e+06 9.101825556020390650e+03
3.235362246484135743e+06 9.055181228375151477e+03
3.248460879060994368e+06 9.008717518054647371e+03
3.261559511637853459e+06 8.962443267679336714e+03
3.274658144214712083e+06 8.916367176965617546e+03
3.287756776791571174e+06 8.870497794986906229e+03
3.300855409368429799e+06 8.824843512120129162e+03
3.313954041945288889e+06 8.779412551676497969e+03
3.327052674522147514e+06 8.734212961216180702e+03
3.340151307099006604e+06 8.689252603547089166e+03
3.353249939675865229e+06 8.644539147408699137e+03
3.366348572252723854e+06 8.600080057842456881e+03
3.379447204829582945e+06 8.555882586251173052e+03
3.392545837406441569e+06 8.511953760150496237e+03
3.405644469983300660e+06 8.468300372616329696e+03
3.418743102560159285e+06 8.424928971432946128e+03
3.431841735137018375e+06 8.381845847947297443e+03
3.444940367713877000e+06 8.339057025635884202e+03
3.458039000290736090e+06 8.296568248391362431e+03
3.471137632867594715e+06 8.254384968536915039e+03
3.484236265444453806e+06 8.212512334577222646e+03
3.497334898021312431e+06 8.170955178695639916e+03
3.510433530598171521e+06 8.129718004008034768e+03
3.523532163175030146e+06 8.088804971584373561e+03
3.536630795751889236e+06 8.048219887249881140e+03
3.549729428328747861e+06 8.007966188178290395e+03
3.562828060905606952e+06 4.678668992720096867e+03
3.575926693482465576e+06 4.670394777814514782e+03
3.589025326059324667e+06 4.662258787656073764e+03
3.602123958636183292e+06 4.654259259750224373e+03
3.615222591213042382e+06 4.646394369632791495e+03
3.628321223789901007e+06 4.638662231202975818e+03
3.641419856366760097e+06 4.631060897024155565e+03
3.654518488943618722e+06 4.623588358593658995e+03
3.667617121520477813e+06 4.616242546582743671e+03
3.680715754097336438e+06 4.609021331048061256e+03
3.693814386674195062e+06 4.601922521615886581e+03
3.706913019251054153e+06 4.594943867640425196e+03
3.720011651827912778e+06 4.588083058337580951e+03
3.733110284404771868e+06 4.581337722895537809e+03
3.746208916981630493e+06 4.574705430563606569e+03
3.759307549558489583e+06 4.568183690720787126e+03
3.772406182135348208e+06 4.561769952925489633e+03
3.785504814712207299e+06 4.555461606948010740e+03
3.798603447289065924e+06 4.549255982787246467e+03
3.811702079865925014e+06 4.543150350673278808e+03
3.824800712442783639e+06 4.537141921057447689e+03
3.837899345019642729e+06 4.531227844591569010e+03
3.850997977596501354e+06 4.525405212098003176e+03
3.864096610173360445e+06 4.519671054532294875e+03
3.877195242750219069e+06 4.514022342940192175e+03
3.890293875327078160e+06 4.508455988410814825e+03
3.903392507903936785e+06 4.502968842027859864e+03
3.916491140480795875e+06 4.497557694820702636e+03
3.929589773057654500e+06 4.492219277717351360e+03
3.942688405634513590e+06 4.486950261501200657e+03
3.955787038211372215e+06 4.481747256773609479e+03
3.968885670788231306e+06 4.476606813924332528e+03
3.981984303365089931e+06 4.471525423111930650e+03
3.995082935941949021e+06 4.466499514256246584e+03
4.008181568518807646e+06 4.461525457045145231e+03
4.021280201095666736e+06 4.456599560957700305e+03
4.034378833672525361e+06 4.451718075306144783e+03
4.047477466249383986e+06 4.446877189298747908e+03
4.060576098826243076e+06 4.442073032126102589e+03
4.073674731403101701e+06 4.437301673073061465e+03
4.086773363979960792e+06 4.432559121658801814e+03
4.099871996556819417e+06 4.427841327807414928e+03
4.112970629133678507e+06 4.423144182051559255e+03
4.126069261710537132e+06 4.418463515771603852e+03
4.139167894287396222e+06 4.413795101472878741e+03
4.152266526864254847e+06 4.409134653103608798e+03
4.165365159441113938e+06 4.404477826416075914e+03
4.178463792017972562e+06 4.399820219373721557e+03
4.191562424594831653e+06 4.395157372606816352e+03
4.204661057171690278e+06 4.390484769919396967e+03
4.217759689748548903e+06 4.385797838850159678e+03
4.230858322325408459e+06 4.381091951290096404e+03
4.243956954902267084e+06 4.376362424159529837e+03
4.257055587479125708e+06 4.371604520147409858e+03
4.270154220055984333e+06 4.366813448515558775e+03
4.283252852632843889e+06 4.361984365970678482e+03
4.296351485209702514e+06 4.357112377606927112e+03
4.309450117786561139e+06 4.352200994828845978e+03
4.322548750363419764e+06 4.347298276464396622e+03
4.335647382940279320e+06 4.342412488428712095e+03
4.348746015517137945e+06 4.337543479859986292e+03
4.361844648093996570e+06 4.332691101308921134e+03
4.374943280670855194e+06 4.327855204728783065e+03
4.388041913247713819e+06 4.323035643465535031e+03
4.401140545824573375e+06 4.318232272248093068e+03
4.414239178401432000e+06 4.313444947178707480e+03
4.427337810978290625e+06 4.308673525723417697e+03
4.440436443555149250e+06 4.303917866702604442e+03
4.453535076132008806e+06 4.299177830281689239e+03
4.466633708708867431e+06 4.294453277961880303e+03
4.479732341285726056e+06 4.289744072571047582e+03
4.492830973862584680e+06 4.285050078254682376e+03
4.505929606439444236e+06 4.280371160466957008e+03
4.519028239016302861e+06 4.275707185961882715e+03
4.532126871593161486e+06 4.271058022784541208e+03
4.545225504170020111e+06 4.266423540262438109e+03
4.558324136746879667e+06 4.261803608996915500e+03
4.571422769323738292e+06 4.257198100854677250e+03
4.584521401900596917e+06 4.252606888959388016e+03
4.597620034477455541e+06 4.248029847683357730e+03
4.610718667054315098e+06 4.243466852639326135e+03
4.623817299631173722e+06 4.238917780672320077e+03
4.636915932208032347e+06 4.234382509851580835e+03
4.650014564784890972e+06 4.229860919462609672e+03
4.663113197361750528e+06 4.225352889999253421e+03
4.676211829938609153e+06 4.220858303155894646e+03
4.689310462515467778e+06 4.216377041819713668e+03
4.702409095092326403e+06 4.211908990063024248e+03
4.715507727669185027e+06 4.207454033135688405e+03
4.728606360246044584e+06 4.203012057457612173e+03
4.741704992822903208e+06 4.198582950611294109e+03
4.754803625399761833e+06 4.194166601334476582e+03
4.767902257976620458e+06 4.189762899512852528e+03
4.781000890553480014e+06 4.185371736172834062e+03
4.794099523130338639e+06 4.180993003474408397e+03
4.807198155707197264e+06 4.176626594704057425e+03
4.820296788284055889e+06 4.172272404267735510e+03
4.833395420860915445e+06 4.167930327683942778e+03
4.846494053437774070e+06 4.163600261576810226e+03
4.859592686014632694e+06 4.159282103669313074e+03
4.872691318591491319e+06 4.154975752776508671e+03
4.885789951168350875e+06 4.150681108798838977e+03
4.898888583745209500e+06 4.146398072715526723e+03
4.911987216322068125e+06 4.142126546577977933e+03
4.925085848898926750e+06 4.137866433503311782e+03
4.938184481475786306e+06 4.133617637667897725e+03
4.951283114052644931e+06 4.129380064300967206e+03
4.964381746629503556e+06 4.125153619678296309e+03
4.977480379206362180e+06 4.120938211115930244e+03
4.990579011783221737e+06 4.116733746963975136e+03
5.003677644360080361e+06 4.112540136600435289e+03
5.016776276936938986e+06 4.108357290425111387e+03
5.029874909513797611e+06 4.104185119853540527e+03
5.042973542090656236e+06 4.100023537311037217e+03
5.056072174667515792e+06 4.095872456226708891e+03
5.069170807244374417e+06 4.091731791027586951e+03
5.082269439821233042e+06 4.087601457132771429e+03
5.095368072398091666e+06 4.083481370947668438e+03
5.108466704974951223e+06 4.079371449858235792e+03
5.121565337551809847e+06 4.075271612225276840e+03
5.134663970128668472e+06 4.071181777378834340e+03
5.147762602705527097e+06 4.067101865612548863e+03
5.160861235282386653e+06 4.063031798178167264e+03
5.173959867859245278e+06 4.058971497279987489e+03
5.187058500436103903e+06 4.054920886069456174e+03
5.200157133012962528e+06 4.050879888639708497e+03
5.213255765589822084e+06 4.046848430020230353e+03
