# Radius (m)	Pressure (Pa)
0.000000000000000000e+00 3.818027300899418335e+11
1.302662603369927274e+04 3.817965876316619263e+11
2.605325206739854548e+04 3.817781607250057373e+11
3.907987810109782004e+04 3.817474507726984253e+11
5.210650413479709096e+04 3.817044598442081909e+11
6.513313016849636188e+04 3.816491902346460571e+11
7.815975620219564007e+04 3.815816457671848145e+11
9.118638223589491099e+04 3.815018316816057129e+11
1.042130082695941819e+05 3.814097540022522583e+11
1.172396343032934528e+05 3.813054195380303345e+11
1.302662603369927238e+05 3.811888358824079590e+11
1.432928863706919947e+05 3.810600114134152222e+11
1.563195124043912801e+05 3.809189552936447144e+11
1.693461384380905365e+05 3.807656774702510986e+11
1.823727644717898220e+05 3.806001886749512329e+11
1.953993905054890784e+05 3.804225004240243530e+11
2.084260165391883638e+05 3.802326250183118286e+11
2.214526425728876493e+05 3.800305755432171631e+11
2.344792686065869057e+05 3.798163658687062378e+11
2.475058946402861911e+05 3.795900106493071289e+11
2.605325206739854475e+05 3.793515252748796997e+11
2.735591467076847330e+05 3.791009226747270508e+11
2.865857727413839893e+05 3.788382192472496338e+11
2.996123987750832457e+05 3.785634347184754028e+11
3.126390248087825603e+05 3.782765895827937622e+11
3.256656508424818167e+05 3.779777051029555054e+11
3.386922768761810730e+05 3.776668033100728760e+11
3.517189029098803876e+05 3.773439070036193848e+11
3.647455289435796440e+05 3.770090397514301147e+11
3.777721549772789003e+05 3.766622258897015381e+11
3.907987810109781567e+05 3.763034905229913940e+11
4.038254070446774713e+05 3.759328595242189941e+11
4.168520330783767276e+05 3.755503595346650391e+11
4.298786591120759840e+05 3.751560179639715576e+11
4.429052851457752986e+05 3.747498629901420898e+11
4.559319111794745550e+05 3.743319235595413818e+11
4.689585372131738113e+05 3.739022293868959351e+11
4.819851632468730677e+05 3.734608109552932739e+11
4.950117892805723823e+05 3.730076995161826172e+11
5.080384153142716386e+05 3.725429270893745117e+11
5.210650413479708950e+05 3.720665264630408936e+11
5.340916673816702096e+05 3.715785311937150269e+11
5.471182934153694659e+05 3.710789756062918091e+11
5.601449194490687223e+05 3.705678947940272827e+11
5.731715454827679787e+05 3.700453246185391235e+11
5.861981715164672351e+05 3.695113017098062134e+11
5.992247975501664914e+05 3.689658634661691284e+11
6.122514235838658642e+05 3.684090480543294678e+11
6.252780496175651206e+05 3.678408944093506470e+11
6.383046756512643769e+05 3.672614422346571655e+11
6.513313016849636333e+05 3.666707320020350952e+11
6.643579277186628897e+05 3.660688049516318970e+11
6.773845537523621460e+05 3.654557030919564209e+11
6.904111797860614024e+05 3.648314691998789673e+11
7.034378058197607752e+05 3.641961468206312256e+11
7.164644318534600316e+05 3.635497802678061523e+11
7.294910578871592879e+05 3.628924146233584595e+11
7.425176839208585443e+05 3.622240957376038818e+11
7.555443099545578007e+05 3.615448702292197876e+11
7.685709359882570570e+05 3.608547854852449341e+11
7.815975620219563134e+05 3.601538896610794067e+11
7.946241880556556862e+05 3.594422316804848633e+11
8.076508140893549426e+05 3.587198612355841064e+11
8.206774401230541989e+05 3.579868287868616333e+11
8.337040661567534553e+05 3.572431855631631470e+11
8.467306921904527117e+05 3.564889835616958618e+11
8.597573182241519680e+05 3.557242755480284424e+11
8.727839442578512244e+05 3.549491150560907593e+11
8.858105702915505972e+05 3.541635563881743164e+11
8.988371963252498535e+05 3.533676546149318848e+11
9.118638223589491099e+05 3.525614583277969971e+11
9.248904483926483663e+05 3.517449030514175415e+11
9.379170744263476226e+05 3.509180132842954102e+11
9.509437004600468790e+05 3.500808601858189087e+11
9.639703264937461354e+05 3.492335151789025269e+11
9.769969525274455082e+05 3.483760499499868164e+11
9.900235785611447645e+05 3.475085364490382690e+11
1.003050204594844021e+06 3.466310468895494385e+11
1.016076830628543277e+06 3.457436537485391235e+11
1.029103456662242534e+06 3.448464297665518188e+11
1.042130082695941790e+06 3.439394479476584473e+11
1.055156708729641046e+06 3.430227815594556274e+11
1.068183334763340419e+06 3.420965041330662842e+11
1.081209960797039559e+06 3.411606894631393433e+11
1.094236586830738932e+06 3.402154116078496094e+11
1.107263212864438072e+06 3.392607448888980713e+11
1.120289838898137445e+06 3.382967638915118408e+11
1.133316464931836817e+06 3.373235434644439087e+11
1.146343090965535957e+06 3.363411587199733887e+11
1.159369716999235330e+06 3.353496850339053955e+11
1.172396343032934470e+06 3.343491980455712891e+11
1.185422969066633843e+06 3.333397736578281250e+11
1.198449595100332983e+06 3.323214880370593872e+11
1.211476221134032356e+06 3.312944176131742554e+11
1.224502847167731728e+06 3.302586390796082153e+11
1.237529473201430868e+06 3.292142293933226929e+11
1.250556099235130241e+06 3.281612657748051147e+11
1.263582725268829381e+06 3.270998257080691528e+11
1.276609351302528754e+06 3.260299869406542358e+11
1.289635977336227894e+06 3.249518274836260376e+11
1.302662603369927267e+06 3.238654256115762329e+11
1.315689229403626639e+06 3.227708598626225586e+11
1.328715855437325779e+06 3.216682090384088135e+11
1.341742481471025152e+06 3.205575522041047363e+11
1.354769107504724292e+06 3.194389686884062500e+11
1.367795733538423665e+06 3.183125380835351562e+11
1.380822359572122805e+06 3.171783402452395630e+11
1.393848985605822178e+06 3.160364552927933350e+11
1.406875611639521550e+06 3.148869636089965820e+11
1.419902237673220690e+06 3.137299458401753540e+11
1.432928863706920063e+06 3.125654828961818848e+11
1.445955489740619203e+06 3.113936559503942871e+11
1.458982115774318576e+06 3.102145464397167358e+11
1.472008741808017716e+06 3.090282360645796509e+11
1.485035367841717089e+06 3.078348067889392700e+11
1.498061993875416461e+06 3.066343408402779541e+11
1.511088619909115601e+06 3.054269207096041870e+11
1.524115245942814974e+06 3.042126291514523926e+11
1.537141871976514114e+06 3.029915491838831177e+11
1.550168498010213487e+06 3.017637640884829102e+11
1.563195124043912627e+06 3.005293574103643799e+11
1.576221750077612000e+06 2.992884129581661377e+11
1.589248376111311372e+06 2.980410148040529175e+11
1.602275002145010512e+06 2.967872472837154541e+11
1.615301628178709885e+06 2.955271949963706055e+11
1.628328254212409025e+06 2.942609428047611084e+11
1.641354880246108398e+06 2.929885758351559448e+11
1.654381506279807538e+06 2.917101794773500366e+11
1.667408132313506911e+06 2.904258393846643066e+11
1.680434758347206283e+06 2.891356414739458008e+11
1.693461384380905423e+06 2.878396719255676880e+11
1.706488010414604796e+06 2.865380171834289551e+11
1.719514636448303936e+06 2.852307639549548340e+11
1.732541262482003309e+06 2.839179992110965576e+11
1.745567888515702449e+06 2.825998101863312988e+11
1.758594514549401822e+06 2.812762843786624756e+11
1.771621140583101194e+06 2.799475095496194458e+11
1.784647766616800334e+06 2.786135737242575073e+11
1.797674392650499707e+06 2.772745651911582031e+11
1.810701018684198847e+06 2.759305725024290161e+11
1.823727644717898220e+06 2.745816844737034607e+11
1.836754270751597360e+06 2.732279901841411743e+11
1.849780896785296733e+06 2.718695789764277039e+11
1.862807522818996105e+06 2.705065404567747803e+11
1.875834148852695245e+06 2.691389644949201660e+11
1.888860774886394618e+06 2.677669412241276245e+11
1.901887400920093758e+06 2.663905610411869507e+11
1.914914026953793131e+06 2.650099146064140320e+11
1.927940652987492271e+06 2.636250928436508179e+11
1.940967279021191644e+06 2.622361869402651978e+11
1.953993905054891016e+06 2.608432883471512146e+11
1.967020531088590156e+06 2.594464887787290039e+11
1.980047157122289529e+06 2.580458802129445190e+11
1.993073783155988669e+06 2.566415548912700806e+11
2.006100409189688042e+06 2.552336053187037354e+11
2.019127035223387182e+06 2.538221242637698364e+11
2.032153661257086555e+06 2.524072047585186157e+11
2.045180287290785927e+06 2.509889400985263977e+11
2.058206913324485067e+06 2.495674238428956299e+11
2.071233539358184440e+06 2.481427498142546997e+11
2.084260165391883580e+06 2.467150120987581482e+11
2.097286791425582953e+06 2.452843050460863953e+11
2.110313417459282093e+06 2.438507232694461060e+11
2.123340043492981233e+06 2.424143616455698242e+11
2.136366669526680838e+06 2.409753153147162170e+11
2.149393295560379978e+06 2.395336796806701050e+11
2.162419921594079118e+06 2.380895504107421570e+11
2.175446547627778724e+06 2.366430234357691650e+11
2.188473173661477864e+06 2.351941949501140747e+11
2.201499799695177004e+06 2.337431614116657104e+11
2.214526425728876144e+06 2.322900195418390503e+11
2.227553051762575749e+06 2.308348663255750122e+11
2.240579677796274889e+06 2.293777990113407288e+11
2.253606303829974029e+06 2.279189151111292725e+11
2.266632929863673635e+06 2.264583124004597168e+11
2.279659555897372775e+06 2.249960889183772888e+11
2.292686181931071915e+06 2.235323429674532471e+11
2.305712807964771055e+06 2.220671731137847900e+11
2.318739433998470660e+06 2.206006781869952698e+11
2.331766060032169800e+06 2.191329572802340698e+11
2.344792686065868940e+06 2.176641097501766052e+11
2.357819312099568546e+06 2.161942352170242920e+11
2.370845938133267686e+06 2.147234335645046997e+11
2.383872564166966826e+06 2.132518049398713684e+11
2.396899190200665966e+06 2.117794497539038696e+11
2.409925816234365571e+06 2.103064686809078369e+11
2.422952442268064711e+06 2.088329626587150269e+11
2.435979068301763851e+06 2.073590328886831665e+11
2.449005694335463457e+06 2.058847808356959534e+11
2.462032320369162597e+06 2.044103082281633301e+11
2.475058946402861737e+06 2.029357170580212097e+11
2.488085572436560877e+06 2.014611095807314148e+11
2.501112198470260482e+06 1.999865883152819214e+11
2.514138824503959622e+06 1.985122560441867981e+11
2.527165450537658762e+06 1.970358918277694702e+11
2.540192076571358368e+06 1.955519487730798645e+11
2.553218702605057508e+06 1.940607470565241394e+11
2.566245328638756648e+06 1.925628960578739624e+11
2.579271954672455788e+06 1.910589961769766846e+11
2.592298580706155393e+06 1.895496388337552490e+11
2.605325206739854533e+06 1.880354064682084961e+11
2.618351832773553673e+06 1.865168725404107971e+11
2.631378458807253279e+06 1.849946015305121460e+11
2.644405084840952419e+06 1.834691489387384338e+11
2.657431710874651559e+06 1.819410612853909912e+11
2.670458336908350699e+06 1.804108761108469849e+11
2.683484962942050304e+06 1.788791219755591431e+11
2.696511588975749444e+06 1.773463184600560608e+11
2.709538215009448584e+06 1.758129761649418335e+11
2.722564841043148190e+06 1.742795967108962097e+11
2.735591467076847330e+06 1.727466727386748657e+11
2.748618093110546470e+06 1.712146879091089172e+11
2.761644719144245610e+06 1.696841169031052246e+11
2.774671345177945215e+06 1.681554254216463318e+11
2.787697971211644355e+06 1.666290701857905884e+11
2.800724597245343495e+06 1.651054989366718140e+11
2.813751223279043101e+06 1.635851504354995728e+11
2.826777849312742241e+06 1.620684544635592346e+11
2.839804475346441381e+06 1.605558318222117310e+11
2.852831101380140521e+06 1.590476943328936768e+11
2.865857727413840126e+06 1.575444448371173706e+11
2.878884353447539266e+06 1.560464771964708862e+11
2.891910979481238406e+06 1.545541762926178284e+11
2.904937605514938012e+06 1.530679180272975464e+11
2.917964231548637152e+06 1.515880693223251648e+11
2.930990857582336292e+06 1.501149881195913391e+11
2.944017483616035432e+06 1.486490233810624695e+11
2.957044109649735037e+06 1.471905150887806091e+11
2.970070735683434177e+06 1.457397942448635864e+11
2.983097361717133317e+06 1.442971828715047913e+11
2.996123987750832923e+06 1.428629940109733276e+11
3.009150613784532063e+06 1.414375317256140137e+11
3.022177239818231203e+06 1.400210910978473816e+11
3.035203865851930343e+06 1.386139582301695251e+11
3.048230491885629948e+06 1.372164102451522217e+11
3.061257117919329088e+06 1.358287152854431305e+11
3.074283743953028228e+06 1.344511325137653961e+11
3.087310369986727834e+06 1.330839121129178162e+11
3.100336996020426974e+06 1.317272952857750397e+11
3.113363622054126114e+06 1.303815142552873230e+11
3.126390248087825254e+06 1.290467922644804993e+11
3.139416874121524859e+06 1.277233435764561615e+11
3.152443500155223999e+06 1.264113734743917236e+11
3.165470126188923139e+06 1.251110782615400543e+11
3.178496752222622745e+06 1.238226452612297211e+11
3.191523378256321885e+06 1.225462528168651733e+11
3.204550004290021025e+06 1.212820702919263611e+11
3.217576630323720165e+06 1.200302580699689331e+11
3.230603256357419770e+06 1.187909675546242218e+11
3.243629882391118910e+06 1.175643411695993805e+11
3.256656508424818050e+06 1.163505123586770477e+11
3.269683134458517656e+06 1.151496055857155914e+11
3.282709760492216796e+06 1.139617363346491852e+11
3.295736386525915936e+06 1.127870111094875183e+11
3.308763012559615076e+06 1.116255274343160706e+11
3.321789638593314681e+06 1.104773738532958984e+11
3.334816264627013821e+06 1.093426299306638641e+11
3.347842890660712961e+06 1.082213662507324219e+11
3.360869516694412567e+06 1.071136444178897247e+11
3.373896142728111707e+06 1.060195170565996094e+11
3.386922768761810847e+06 1.049390278114016571e+11
3.399949394795509987e+06 1.038722113469110107e+11
3.412976020829209592e+06 1.028190933478185120e+11
3.426002646862908732e+06 1.017796905188907471e+11
3.439029272896607872e+06 1.007540105849700623e+11
3.452055898930307478e+06 9.974205229097419739e+10
3.465082524964006618e+06 9.874380540189688110e+10
3.478109150997705758e+06 9.775925070280735779e+10
3.491135777031404898e+06 9.678835999885057068e+10
3.504162403065104503e+06 9.583109611524717712e+10
3.517189029098803643e+06 9.488741289729350281e+10
3.530215655132502783e+06 9.395725521036149597e+10
3.543242281166202389e+06 9.304055893989889526e+10
3.556268907199901529e+06 9.213725099142906189e+10
3.569295533233600669e+06 9.124724929055102539e+10
3.582322159267299809e+06 9.037046278293948364e+10
3.595348785300999414e+06 8.950679143434480286e+10
3.608375411334698554e+06 8.865612623059317017e+10
3.621402037368397694e+06 8.781834917758628845e+10
3.634428663402097300e+06 8.699333330130155945e+10
3.647455289435796440e+06 8.618094264779216003e+10
3.660481915469495580e+06 8.538103228318685913e+10
3.673508541503194720e+06 8.459344829369013977e+10
3.686535167536894325e+06 8.381802778558218384e+10
3.699561793570593465e+06 8.305459888521881104e+10
3.712588419604292605e+06 8.230298073903155518e+10
3.725615045637992211e+06 8.156298351352757263e+10
3.738641671671691351e+06 8.083440839528984070e+10
3.751668297705390491e+06 8.011704759097682190e+10
3.764694923739089631e+06 7.941068432732281494e+10
3.777721549772789236e+06 7.871509285113771057e+10
3.790748175806488376e+06 7.803003842930714417e+10
3.803774801840187516e+06 7.735527734879232788e+10
3.816801427873887122e+06 7.669055691663029480e+10
3.829828053907586262e+06 7.603561545993362427e+10
3.842854679941285402e+06 7.539018232589076233e+10
3.855881305974984542e+06 7.475397788176554871e+10
3.868907932008684147e+06 7.412671351489770508e+10
3.881934558042383287e+06 7.350809163270272827e+10
3.894961184076082427e+06 7.289780566267149353e+10
3.907987810109782033e+06 7.229554005237074280e+10
3.921014436143481173e+06 7.170097026944293213e+10
3.934041062177180313e+06 7.111376280160612488e+10
3.947067688210879453e+06 7.053357515665414429e+10
3.960094314244579058e+06 6.996005586245631409e+10
3.973120940278278198e+06 6.939284446695782471e+10
3.986147566311977338e+06 6.883157153817950439e+10
3.999174192345676944e+06 6.827585866421777344e+10
4.012200818379376084e+06 6.772531845324479675e+10
4.025227444413075224e+06 6.717955453350842285e+10
4.038254070446774364e+06 6.663816155333222961e+10
4.051280696480473969e+06 6.610072518111534119e+10
4.064307322514173109e+06 6.556682210533267212e+10
4.077333948547872249e+06 6.503602003453483582e+10
4.090360574581571855e+06 6.450787769734794617e+10
4.103387200615270995e+06 6.398194484247409058e+10
4.116413826648970135e+06 6.345776223869070435e+10
4.129440452682669275e+06 6.293486167485122681e+10
4.142467078716368880e+06 6.241276595988447571e+10
4.155493704750068020e+06 6.189098892279519653e+10
4.168520330783767160e+06 6.136903541266363525e+10
4.181546956817466766e+06 6.084640129864582825e+10
4.194573582851165906e+06 6.032257346997354126e+10
4.207600208884865046e+06 5.979702983595397949e+10
4.220626834918564186e+06 5.926923932597030640e+10
4.233653460952263325e+06 5.873866188948117065e+10
4.246680086985962465e+06 5.820474849602102661e+10
4.259706713019662537e+06 5.766694113519989014e+10
4.272733339053361677e+06 5.712467281670358276e+10
4.285759965087060817e+06 5.657736757029364014e+10
4.298786591120759957e+06 5.602444044580697632e+10
4.311813217154459096e+06 5.546558904236347961e+10
4.324839843188158236e+06 5.490593146542063141e+10
4.337866469221857376e+06 5.434752594819276428e+10
4.350893095255557448e+06 5.379036082637339783e+10
4.363919721289256588e+06 5.323442451247155762e+10
4.376946347322955728e+06 5.267970549581159210e+10
4.389972973356654868e+06 5.212619234253327942e+10
4.402999599390354007e+06 5.157387369559179688e+10
4.416026225424053147e+06 5.102273827475776672e+10
4.429052851457752287e+06 5.047277487661719513e+10
4.442079477491452359e+06 4.992397237457147217e+10
4.455106103525151499e+06 4.937631971883750153e+10
4.468132729558850639e+06 4.882980593644750214e+10
4.481159355592549779e+06 4.828442013124912262e+10
4.494185981626248918e+06 4.774015148390544128e+10
4.507212607659948058e+06 4.719698925189492035e+10
4.520239233693647198e+06 4.665492276951145172e+10
4.533265859727347270e+06 4.611394144786430359e+10
4.546292485761046410e+06 4.557403477487826538e+10
4.559319111794745550e+06 4.503519231529341125e+10
4.572345737828444690e+06 4.449740371066527557e+10
4.585372363862143829e+06 4.396065867936479950e+10
4.598398989895842969e+06 4.342494701657833862e+10
4.611425615929542109e+06 4.289025859430764771e+10
4.624452241963242181e+06 4.235658336136987305e+10
4.637478867996941321e+06 4.182391134339767456e+10
4.650505494030640461e+06 4.129223264283900452e+10
4.663532120064339601e+06 4.076153743895727539e+10
4.676558746098038740e+06 4.023181598783128357e+10
4.689585372131737880e+06 3.970305862235528564e+10
4.702611998165437020e+06 3.917525575223889923e+10
4.715638624199137092e+06 3.864839786400714874e+10
4.728665250232836232e+06 3.812247552100054932e+10
4.741691876266535372e+06 3.759747936337496185e+10
4.754718502300234511e+06 3.707340010810163879e+10
4.767745128333933651e+06 3.655022854896729279e+10
4.780771754367632791e+06 3.602795555657400513e+10
4.793798380401331931e+06 3.550657207833930969e+10
4.806825006435032003e+06 3.498606913849607849e+10
4.819851632468731143e+06 3.446643783809272003e+10
4.832878258502430283e+06 3.394766935499295044e+10
4.845904884536129422e+06 3.342975494387591553e+10
4.858931510569828562e+06 3.291268593623619080e+10
4.871958136603527702e+06 3.239645374038374329e+10
4.884984762637226842e+06 3.188104984144396210e+10
4.898011388670926914e+06 3.136646580135761642e+10
4.911038014704626054e+06 3.085269325888098526e+10
4.924064640738325194e+06 3.033972392958563614e+10
4.937091266772024333e+06 2.982754960585861588e+10
4.950117892805723473e+06 2.931616215690235901e+10
4.963144518839422613e+06 2.880555352873471451e+10
4.976171144873121753e+06 2.829571574418895340e+10
4.989197770906821825e+06 2.778664090291371155e+10
5.002224396940520965e+06 2.727832118137312317e+10
5.015251022974220105e+06 2.677074883284666824e+10
5.028277649007919244e+06 2.626391618742924500e+10
5.041304275041618384e+06 2.575781565203116226e+10
5.054330901075317524e+06 2.525243971037816238e+10
5.067357527109016664e+06 2.474778092301136017e+10
5.080384153142716736e+06 2.424383192728728104e+10
5.093410779176415876e+06 2.374058543737794495e+10
5.106437405210115016e+06 2.323803424427069473e+10
5.119464031243814155e+06 2.273617121576829910e+10
5.132490657277513295e+06 2.223498929648896408e+10
5.145517283311212435e+06 2.173448150786626816e+10
5.158543909344911575e+06 2.123464094814923859e+10
5.171570535378611647e+06 2.073546079240225220e+10
5.184597161412310787e+06 2.023693429250522614e+10
