# Radius (m)	Density (kg/m^3)	Gravity (m/s^2)	Pressure (Pa)	Temperature (K)
0.000000000000000000e+00 1.415877425584213779e+04 0.000000000000000000e+00 3.781571438756454468e+11 9.540000000000000000e+03
6.381986084787200525e+04 1.415782192986921291e+04 2.526329708138270180e-01 3.780429957634047241e+11 9.539453756915445410e+03
1.276397216957440105e+05 1.415496552303674616e+04 5.052019065262713937e-01 3.777006198784790649e+11 9.537814238906066748e+03
1.914595825436160085e+05 1.415020697457294955e+04 7.576507307973214811e-01 3.771302486614891968e+11 9.535079075088173340e+03
2.552794433914880210e+05 1.414354938687808681e+04 1.009920449674260867e+00 3.763322539736920776e+11 9.531244298540284944e+03
3.190993042393600335e+05 1.413499693257779654e+04 1.261944483736480604e+00 3.753071359561662598e+11 9.526304322918007529e+03
3.829191650872320170e+05 1.412455478231028246e+04 1.513656783894157698e+00 3.740555143742097778e+11 9.520251909285609145e+03
4.467390259351040586e+05 1.411222975171165854e+04 1.764998970373760745e+00 3.725782061665791016e+11 9.513078122723032720e+03
5.105588867829760420e+05 1.409795729588372160e+04 2.015911969379917679e+00 3.708761945064227295e+11 9.504772278123509750e+03
5.743787476308480836e+05 1.408167972878168075e+04 2.266335879578567969e+00 3.689506042359136963e+11 9.495321874439243402e+03
6.381986084787200671e+05 1.406352289371333973e+04 2.516209972096959291e+00 3.668027018662495728e+11 9.484712516456702360e+03
7.020184693265920505e+05 1.404349869443018724e+04 2.765472690523652410e+00 3.644338955776525879e+11 9.472927822984169325e+03
7.658383301744640339e+05 1.402148275209862550e+04 3.014061650908518963e+00 3.618457352193695068e+11 9.459949320106365121e+03
8.296581910223360173e+05 1.399745131391515315e+04 3.261913641762739680e+00 3.590399123096717529e+11 9.445756317897357803e+03
8.934780518702081172e+05 1.397157133069198062e+04 3.508964624058807047e+00 3.560182600358552246e+11 9.430325768675076688e+03
9.572979127180801006e+05 1.394362995278097878e+04 3.755149731230523535e+00 3.527827532542405396e+11 9.413632104518201231e+03
1.021117773565952084e+06 1.391371478639035922e+04 4.000403269173003373e+00 3.493355084901728516e+11 9.395647051335789001e+03
1.084937634413824184e+06 1.388186065974341545e+04 4.244658716242670771e+00 3.456787839380217896e+11 9.376339416265975160e+03
1.148757495261696167e+06 1.384788841558671993e+04 4.487848505333136728e+00 3.418149814706654663e+11 9.355674844561504869e+03
1.212577356109568151e+06 1.381199600200085115e+04 4.729840639047750983e+00 3.377472392498692017e+11 9.333615541371331346e+03
1.276397216957440134e+06 1.377396927181083629e+04 4.970539427707089786e+00 3.334785301886649170e+11 9.310119952915505564e+03
1.340217077805312118e+06 1.373392631188623272e+04 5.209907203115045959e+00 3.290114497297926636e+11 9.285142400432952854e+03
1.404036938653184101e+06 1.369184216495138753e+04 5.447902461319621636e+00 3.243487811582408447e+11 9.258632658902897674e+03
1.467856799501056084e+06 1.364753278004485219e+04 5.684479862612923817e+00 3.194934956012458496e+11 9.230535470828868711e+03
1.531676660348928068e+06 1.360118743389992414e+04 5.919590231531166147e+00 3.144487520282924194e+11 9.200789983234426472e+03
1.595496521196800051e+06 1.355272530564237422e+04 6.153180556854671579e+00 3.092178972511132202e+11 9.169329093326155999e+03
1.659316382044672035e+06 1.350193475639440294e+04 6.385193991607866160e+00 3.038044659236891479e+11 9.136078684863394301e+03
1.723136242892544251e+06 1.344897682907906164e+04 6.615569853059286132e+00 2.982121805422492676e+11 9.100956732908151025e+03
1.786956103740416234e+06 1.339379833895087359e+04 6.844243622721572606e+00 2.924449514452707520e+11 9.063872249001738965e+03
1.850775964588288218e+06 1.333634863244613007e+04 7.071146946351472451e+00 2.865068768134790039e+11 9.024724031498608383e+03
1.914595825436160201e+06 1.327657999756500067e+04 7.296207633949840954e+00 2.804022426698473511e+11 8.983399176185124816e+03
1.978415686284032185e+06 1.321444525110520044e+04 7.519349659761642712e+00 2.741355228795975342e+11 8.939771289579201039e+03
2.042235547131904168e+06 1.314990141497651348e+04 7.740493162275940975e+00 2.677113791501992493e+11 8.893698330240473297e+03
2.106055407979776151e+06 1.308290660236848998e+04 7.959554444225917180e+00 2.611346610313704529e+11 8.845019980274631962e+03
2.169875268827648368e+06 1.301342251864231184e+04 8.176445972588849642e+00 2.544104059150770874e+11 8.793554417420471509e+03
2.233695129675520118e+06 1.294141350769049677e+04 8.391076378586125983e+00 2.475438390355335083e+11 8.739094313823086850e+03
2.297514990523392335e+06 1.286684707417853497e+04 8.603350457683244912e+00 2.405403734692019043e+11 8.681401824974407646e+03
2.361334851371264085e+06 1.278955154865178702e+04 8.813169169589805563e+00 2.334056101347929077e+11 8.620202242268154805e+03
2.425154712219136301e+06 1.270951243642984991e+04 9.020429638259521710e+00 2.261453377932649536e+11 8.555175850782954512e+03
2.488974573067008052e+06 1.262679696562356185e+04 9.225025151890204000e+00 2.187655330478249512e+11 8.485947336920335147e+03
2.552794433914880268e+06 1.254102274110656799e+04 9.426845162923779498e+00 2.112723603439277344e+11 8.412071789468878706e+03
2.616614294762752019e+06 1.245242596942882665e+04 9.625775288046272138e+00 2.036721719692764587e+11 8.333015865777717408e+03
2.680434155610624235e+06 1.236068484509357222e+04 9.821697308187822273e+00 1.959715080538222351e+11 8.248131933628637853e+03
2.744254016458496451e+06 1.226577656069606746e+04 1.001448916852267423e+01 1.881770965697643738e+11 8.156621731247483694e+03
2.808073877306368202e+06 1.216761195361966384e+04 1.020402497846917100e+01 1.802958533315505371e+11 8.057483894287230214e+03
2.871893738154240418e+06 1.206603161814393388e+04 1.039017501168977908e+01 1.723348819958761292e+11 7.949435735241950169e+03
2.935713599002112169e+06 1.196088331359918811e+04 1.057280570609104942e+01 1.643014740616852112e+11 7.830792122215354539e+03
2.999533459849984385e+06 1.185201918813589509e+04 1.075177966382366357e+01 1.562031088701693420e+11 7.699269053652063121e+03
3.063353320697856136e+06 1.173930151815903446e+04 1.092695565128239110e+01 1.480474536047689514e+11 7.551646254991175738e+03
3.127173181545728352e+06 1.162234694092767313e+04 1.109818859910611621e+01 1.398423632911719055e+11 7.383143303498550267e+03
3.190993042393600103e+06 1.150114898535587054e+04 1.126532960217783241e+01 1.315958807973148193e+11 7.186147001268542226e+03
3.254812903241472319e+06 1.137526802900023540e+04 1.142822591962463363e+01 1.233162368333821106e+11 6.947229270285788516e+03
3.318632764089344069e+06 1.124445621748617850e+04 1.158672097481772312e+01 1.150118499518064270e+11 6.638486711966968869e+03
3.382452624937216286e+06 1.111437965575581802e+04 1.171757971605813431e+01 1.070537784037013092e+11 6.180073531310595172e+03
3.446272485785088502e+06 5.258356269361344857e+03 1.174098835577717104e+01 1.007216678748567505e+11 4.098291238738409447e+03
3.510092346632960252e+06 5.214345273110264316e+03 1.167947468031252356e+01 9.571053670471871948e+10 4.060073505136033873e+03
3.573912207480832469e+06 5.177631302158226390e+03 1.156231489839097470e+01 9.160632721865789795e+10 4.021374998514940216e+03
3.637732068328704219e+06 5.145443130046745864e+03 1.141413198119413686e+01 8.806369800062164307e+10 3.982178274245859484e+03
3.701551929176576436e+06 5.115437407842036919e+03 1.125489566235845196e+01 8.480602389313385010e+10 3.942464821325673256e+03
3.765371790024448186e+06 5.085725216650056609e+03 1.109992243797519329e+01 8.162539599729507446e+10 3.902214969391995055e+03
3.829191650872320402e+06 5.054997824535876134e+03 1.095987556659046369e+01 7.838262167278234863e+10 3.861407785083149520e+03
3.893011511720192153e+06 5.022541147799058308e+03 1.084076506920519911e+01 7.500722453784948730e+10 3.820020956215802471e+03
3.956831372568064369e+06 4.988251858891524535e+03 1.074394772927516151e+01 7.149744446932669067e+10 3.778030661987061194e+03
4.020651233415936120e+06 4.952714524762659494e+03 1.066612709271094594e+01 6.792023760262092590e+10 3.735411427087890843e+03
4.084471094263808336e+06 4.917242759869954170e+03 1.059935346787797883e+01 6.441127633171569061e+10 3.692135957226936171e+03
4.148290955111680552e+06 4.883090849073161735e+03 1.053451733474069663e+01 6.109185964279269409e+10 3.648174953091848693e+03
4.212110815959552303e+06 4.848959032091837798e+03 1.047424024733586023e+01 5.782965881644775391e+10 3.603496899197348284e+03
4.275930676807424054e+06 4.814656180772137304e+03 1.041869885627683168e+01 5.460826289742053986e+10 3.558067823358027454e+03
4.339750537655296735e+06 4.780170263171765328e+03 1.036755820025263830e+01 5.142616340855735779e+10 3.511851021643233707e+03
4.403570398503168486e+06 4.745462615528444076e+03 1.032050117559040991e+01 4.828197123887903595e+10 3.464806742574094187e+03
4.467390259351040237e+06 4.710524231468853031e+03 1.027722853625538058e+01 4.517441664358065796e+10 3.416891822946437969e+03
4.531210120198911987e+06 4.675327005603694488e+03 1.023745889385088148e+01 4.210234924403169250e+10 3.368059265925003729e+03
4.595029981046784669e+06 4.639848026232048142e+03 1.020092871761835340e+01 3.906473802777595520e+10 3.318257749841887289e+03
4.658849841894656420e+06 4.604054662534485033e+03 1.016739233443733248e+01 3.606067134853178406e+10 3.267431053294034427e+03
4.722669702742528170e+06 4.567932697249980265e+03 1.013662192882546265e+01 3.308935692619172287e+10 3.215517378462222041e+03
4.786489563590400852e+06 4.531443646197548333e+03 1.010840754293848676e+01 3.015012184682270813e+10 3.162448549778684537e+03
4.850309424438272603e+06 4.494593088850295317e+03 1.008235164464332456e+01 2.724470442849821854e+10 3.108149058746681931e+03
4.914129285286144353e+06 4.457419732197344274e+03 1.005788659408072050e+01 2.437702840627849579e+10 3.052534917286898690e+03
4.977949146134016104e+06 4.419864233941954808e+03 1.003504257813601619e+01 2.154446456577054596e+10 2.995512270622555661e+03
5.041769006981888786e+06 4.381866676681433091e+03 1.001387189333786054e+01 1.874418166829497528e+10 2.936975705204014048e+03
5.105588867829760537e+06 4.343359792905660470e+03 9.994422647964647410e+00 1.597343901809711456e+10 2.876806165712198890e+03
5.169408728677632287e+06 4.304273404948279676e+03 9.976738762044528031e+00 1.322958646234675789e+10 2.814868365043764697e+03
5.233228589525504038e+06 4.264528801548649426e+03 9.960859967355400357e+00 1.051006439113835526e+10 2.751007528172596267e+03
5.297048450373376720e+06 4.224040624261411722e+03 9.946821807424916173e+00 7.812403737490882874e+09 2.685045248299592458e+03
5.360868311221248470e+06 4.182716827071399166e+03 9.934655637530475758e+00 5.134225977348060608e+09 2.616774141117499767e+03
5.424688172069120221e+06 4.140454289142888229e+03 9.924388624699233219e+00 2.473243129578067780e+09 2.545950842777117032e+03
5.488508032916992903e+06 4.100003441162109084e+03 9.916043747708091161e+00 -1.727422440263252258e+08 2.472286679416327843e+03
5.552327893764864653e+06 4.100003441162109084e+03 9.909639797083700685e+00 -2.805837038747600555e+09 2.395434988555635755e+03
5.616147754612736404e+06 4.100003441162109084e+03 9.905191375102472051e+00 -5.428057606943798065e+09 2.314973499995311613e+03
5.679967615460608155e+06 4.100003441162109084e+03 9.902708895790556909e+00 -8.041329758048305511e+09 2.230379205272663057e+03
5.743787476308480836e+06 4.100003441162109084e+03 9.902198584923862512e+00 -1.064748875856998062e+10 2.140991400223368146e+03
5.807607337156352587e+06 4.100003441162109084e+03 9.903662480028049941e+00 -1.324827933209291458e+10 2.045955316109258092e+03
5.871427198004224338e+06 4.100003441162109084e+03 9.907098430378525222e+00 -1.584535565927676010e+10 1.944132251353499441e+03
5.935247058852096088e+06 4.100003441162109084e+03 9.912500097000448207e+00 -1.844028137785654068e+10 1.833948196764146815e+03
5.999066919699968770e+06 4.100003441162109084e+03 9.919856952668730798e+00 -2.103452958264270401e+10 1.713120291095294078e+03
6.062886780547840521e+06 4.100003441162109084e+03 9.929154281908033397e+00 -2.362948282552096176e+10 1.578114102037893645e+03
6.126706641395712271e+06 4.100003441162109084e+03 9.940373180992768454e+00 -2.622643311545258713e+10 1.422915806601986333e+03
6.190526502243584953e+06 4.100003441162109084e+03 9.953490557947100470e+00 -2.882658191847428513e+10 1.235634287290032262e+03
6.254346363091456704e+06 4.100003441162109084e+03 9.968479132544942445e+00 -3.143104015769795609e+10 9.849243883288081634e+02
6.318166223939328454e+06 4.100003441162109084e+03 9.985307436309959428e+00 -3.404082821331109238e+10 3.000000000000000000e+02
